

 DIST  Na:   FLUX      FEKM      FIKM
 1.1000     72.8670   72.8670    0.0000
 1.1050     79.6551   79.6551    0.0000
 1.1100     86.4256   86.4256    0.0000
 1.1150     93.1491   93.1491    0.0000
 1.1200     99.8039   99.8039    0.0000
 1.1250    106.3720  106.3720    0.0000
 1.1300    112.8384  112.8384    0.0000
 1.1350    119.1913  119.1913    0.0000
 1.1400    125.4205  125.4205    0.0000
 1.1450    131.5180  131.5180    0.0000
 1.1500    137.4771  137.4771    0.0000
 1.1550    143.2922  143.2922    0.0000
 1.1600    148.9588  148.9588    0.0000
 1.1650    154.4729  154.4729    0.0000
 1.1700    159.8312  159.8312    0.0000
 1.1750    165.0311  165.0311    0.0000
 1.1800    170.0701  170.0701    0.0000
 1.1850    174.9462  174.9462    0.0000
 1.1900    179.6579  179.6579    0.0000
 1.1950    184.2038  184.2038    0.0000
 1.2000    188.5828  188.5828    0.0000
 1.2050    192.7941  192.7941    0.0000
 1.2100    196.8371  196.8371    0.0000
 1.2150    200.7116  200.7116    0.0000
 1.2200    204.4173  204.4173    0.0000
 1.2250    207.9544  207.9544    0.0000
 1.2300    211.3232  211.3232    0.0000
 1.2350    214.5241  214.5241    0.0000
 1.2400    217.5579  217.5579    0.0000
 1.2450    220.4253  220.4253    0.0000
 1.2500    223.1276  223.1276    0.0000
 1.2550    225.6658  225.6658    0.0000
 1.2600    228.0413  228.0413    0.0000
 1.2650    230.2558  230.2558    0.0000
 1.2700    232.3108  232.3108    0.0000
 1.2750    234.2082  234.2082    0.0000
 1.2800    235.9500  235.9500    0.0000
 1.2850    237.5383  237.5383    0.0000
 1.2900    238.9753  238.9753    0.0000
 1.2950    240.2634  240.2634    0.0000
 1.3000    241.4051  241.4051    0.0000
 1.3050    242.4029  242.4029    0.0000
 1.3100    243.2596  243.2596    0.0000
 1.3150    243.9779  243.9779    0.0000
 1.3200    244.5607  244.5607    0.0000
 1.3250    245.0109  245.0109    0.0000
 1.3300    245.3316  245.3316    0.0000
 1.3350    245.5259  245.5259    0.0000
 1.3400    245.5969  245.5969    0.0000
 1.3450    245.5479  245.5479    0.0000
 1.3500    245.3821  245.3821    0.0000
 1.3550    245.1029  245.1029    0.0000
 1.3600    244.7136  244.7136    0.0000
 1.3650    244.2176  244.2176    0.0000
 1.3700    243.6185  243.6185    0.0000
 1.3750    242.9194  242.9194    0.0000
 1.3800    242.1240  242.1240    0.0000
 1.3850    241.2357  241.2357    0.0000
 1.3900    240.2580  240.2580    0.0000
 1.3950    239.1944  239.1944    0.0000
 1.4000    238.0484  238.0484    0.0000
 1.4050    236.8233  236.8233    0.0000
 1.4100    235.5226  235.5226    0.0000
 1.4150    234.1498  234.1498    0.0000
 1.4200    232.7083  232.7083    0.0000
 1.4250    231.2014  231.2014    0.0000
 1.4300    229.6325  229.6325    0.0000
 1.4350    228.0047  228.0047    0.0000
 1.4400    226.3215  226.3215    0.0000
 1.4450    224.5860  224.5860    0.0000
 1.4500    222.8014  222.8014    0.0000
 1.4550    220.9708  220.9708    0.0000
 1.4600    219.0973  219.0973    0.0000
 1.4650    217.1837  217.1837    0.0000
 1.4700    215.2331  215.2331    0.0000
 1.4750    213.2484  213.2484    0.0000
 1.4800    211.2324  211.2324    0.0000
 1.4850    209.1877  209.1877    0.0000
 1.4900    207.1172  207.1172    0.0000
 1.4950    205.0234  205.0234    0.0000
 1.5000    202.9087  202.9087    0.0000
 1.5050    200.7758  200.7758    0.0000
 1.5100    198.6269  198.6269    0.0000
 1.5150    196.4644  196.4644    0.0000
 1.5200    194.2905  194.2905    0.0000
 1.5250    192.1075  192.1075    0.0000
 1.5300    189.9173  189.9173    0.0000
 1.5350    187.7220  187.7220    0.0000
 1.5400    185.5235  185.5235    0.0000
 1.5450    183.3238  183.3238    0.0000
 1.5500    181.1245  181.1245    0.0000
 1.5550    178.9275  178.9275    0.0000
 1.5600    176.7342  176.7342    0.0000
 1.5650    174.5464  174.5464    0.0000
 1.5700    172.3654  172.3654    0.0000
 1.5750    170.1928  170.1928    0.0000
 1.5800    168.0298  168.0298    0.0000
 1.5850    165.8778  165.8778    0.0000
 1.5900    163.7379  163.7379    0.0000
 1.5950    161.6113  161.6113    0.0000
 1.6000    159.4991  159.4991    0.0000


 DIST  K:     FLUX      FEKM      FIKM
 1.1000      3.9561    3.9561    0.0000
 1.1050      4.0907    4.0907    0.0000
 1.1100      4.2252    4.2252    0.0000
 1.1150      4.3584    4.3584    0.0000
 1.1200      4.4893    4.4893    0.0000
 1.1250      4.6172    4.6172    0.0000
 1.1300      4.7415    4.7415    0.0000
 1.1350      4.8616    4.8616    0.0000
 1.1400      4.9771    4.9771    0.0000
 1.1450      5.0877    5.0877    0.0000
 1.1500      5.1931    5.1931    0.0000
 1.1550      5.2931    5.2931    0.0000
 1.1600      5.3874    5.3874    0.0000
 1.1650      5.4760    5.4760    0.0000
 1.1700      5.5587    5.5587    0.0000
 1.1750      5.6354    5.6354    0.0000
 1.1800      5.7061    5.7061    0.0000
 1.1850      5.7706    5.7706    0.0000
 1.1900      5.8290    5.8290    0.0000
 1.1950      5.8812    5.8812    0.0000
 1.2000      5.9272    5.9272    0.0000
 1.2050      5.9670    5.9670    0.0000
 1.2100      6.0006    6.0006    0.0000
 1.2150      6.0281    6.0281    0.0000
 1.2200      6.0494    6.0494    0.0000
 1.2250      6.0647    6.0647    0.0000
 1.2300      6.0739    6.0739    0.0000
 1.2350      6.0772    6.0772    0.0000
 1.2400      6.0745    6.0745    0.0000
 1.2450      6.0661    6.0661    0.0000
 1.2500      6.0519    6.0519    0.0000
 1.2550      6.0321    6.0321    0.0000
 1.2600      6.0068    6.0068    0.0000
 1.2650      5.9761    5.9761    0.0000
 1.2700      5.9401    5.9401    0.0000
 1.2750      5.8990    5.8990    0.0000
 1.2800      5.8528    5.8528    0.0000
 1.2850      5.8018    5.8018    0.0000
 1.2900      5.7460    5.7460    0.0000
 1.2950      5.6856    5.6856    0.0000
 1.3000      5.6208    5.6208    0.0000
 1.3050      5.5517    5.5517    0.0000
 1.3100      5.4784    5.4784    0.0000
 1.3150      5.4013    5.4013    0.0000
 1.3200      5.3203    5.3203    0.0000
 1.3250      5.2357    5.2357    0.0000
 1.3300      5.1476    5.1476    0.0000
 1.3350      5.0563    5.0563    0.0000
 1.3400      4.9618    4.9618    0.0000
 1.3450      4.8644    4.8644    0.0000
 1.3500      4.7643    4.7643    0.0000
 1.3550      4.6616    4.6616    0.0000
 1.3600      4.5565    4.5565    0.0000
 1.3650      4.4492    4.4492    0.0000
 1.3700      4.3398    4.3398    0.0000
 1.3750      4.2285    4.2285    0.0000
 1.3800      4.1155    4.1155    0.0000
 1.3850      4.0010    4.0010    0.0000
 1.3900      3.8852    3.8852    0.0000
 1.3950      3.7681    3.7681    0.0000
 1.4000      3.6500    3.6500    0.0000
 1.4050      3.5311    3.5311    0.0000
 1.4100      3.4114    3.4114    0.0000
 1.4150      3.2911    3.2911    0.0000
 1.4200      3.1705    3.1705    0.0000
 1.4250      3.0496    3.0496    0.0000
 1.4300      2.9286    2.9286    0.0000
 1.4350      2.8076    2.8076    0.0000
 1.4400      2.6868    2.6868    0.0000
 1.4450      2.5663    2.5663    0.0000
 1.4500      2.4463    2.4463    0.0000
 1.4550      2.3268    2.3268    0.0000
 1.4600      2.2080    2.2080    0.0000
 1.4650      2.0900    2.0900    0.0000
 1.4700      1.9728    1.9728    0.0000
 1.4750      1.8568    1.8568    0.0000
 1.4800      1.7418    1.7418    0.0000
 1.4850      1.6280    1.6280    0.0000
 1.4900      1.5156    1.5156    0.0000
 1.4950      1.4045    1.4045    0.0000
 1.5000      1.2950    1.2950    0.0000
 1.5050      1.1870    1.1870    0.0000
 1.5100      1.0806    1.0806    0.0000
 1.5150      0.9760    0.9760    0.0000
 1.5200      0.8731    0.8731    0.0000
 1.5250      0.7720    0.7720    0.0000
 1.5300      0.6729    0.6729    0.0000
 1.5350      0.5757    0.5757    0.0000
 1.5400      0.4804    0.4804    0.0000
 1.5450      0.3872    0.3872    0.0000
 1.5500      0.2961    0.2961    0.0000
 1.5550      0.2071    0.2071    0.0000
 1.5600      0.1202    0.1202    0.0000
 1.5650      0.0355    0.0355    0.0000
 1.5700     -0.0471   -0.0471    0.0000
 1.5750     -0.1274   -0.1274    0.0000
 1.5800     -0.2055   -0.2055    0.0000
 1.5850     -0.2814   -0.2814    0.0000
 1.5900     -0.3551   -0.3551    0.0000
 1.5950     -0.4265   -0.4265    0.0000
 1.6000     -0.4956   -0.4956    0.0000


 DIST  Cl:   FLUX      FEKM      FIKM
 1.1000     81.1448   81.1448    0.0000
 1.1050     87.9636   87.9636    0.0000
 1.1100     94.7604   94.7604    0.0000
 1.1150    101.5052  101.5052    0.0000
 1.1200    108.1760  108.1760    0.0000
 1.1250    114.7548  114.7548    0.0000
 1.1300    121.2264  121.2264    0.0000
 1.1350    127.5787  127.5787    0.0000
 1.1400    133.8017  133.8017    0.0000
 1.1450    139.8871  139.8871    0.0000
 1.1500    145.8280  145.8280    0.0000
 1.1550    151.6189  151.6189    0.0000
 1.1600    157.2550  157.2550    0.0000
 1.1650    162.7324  162.7324    0.0000
 1.1700    168.0477  168.0477    0.0000
 1.1750    173.1980  173.1980    0.0000
 1.1800    178.1810  178.1810    0.0000
 1.1850    182.9947  182.9947    0.0000
 1.1900    187.6374  187.6374    0.0000
 1.1950    192.1077  192.1077    0.0000
 1.2000    196.4045  196.4045    0.0000
 1.2050    200.5271  200.5271    0.0000
 1.2100    204.4749  204.4749    0.0000
 1.2150    208.2476  208.2476    0.0000
 1.2200    211.8451  211.8451    0.0000
 1.2250    215.2676  215.2676    0.0000
 1.2300    218.5154  218.5154    0.0000
 1.2350    221.5891  221.5891    0.0000
 1.2400    224.4893  224.4893    0.0000
 1.2450    227.2172  227.2172    0.0000
 1.2500    229.7739  229.7739    0.0000
 1.2550    232.1606  232.1606    0.0000
 1.2600    234.3789  234.3789    0.0000
 1.2650    236.4305  236.4305    0.0000
 1.2700    238.3171  238.3171    0.0000
 1.2750    240.0408  240.0408    0.0000
 1.2800    241.6037  241.6037    0.0000
 1.2850    243.0080  243.0080    0.0000
 1.2900    244.2562  244.2562    0.0000
 1.2950    245.3507  245.3507    0.0000
 1.3000    246.2944  246.2944    0.0000
 1.3050    247.0898  247.0898    0.0000
 1.3100    247.7399  247.7399    0.0000
 1.3150    248.2477  248.2477    0.0000
 1.3200    248.6162  248.6162    0.0000
 1.3250    248.8486  248.8486    0.0000
 1.3300    248.9481  248.9481    0.0000
 1.3350    248.9180  248.9180    0.0000
 1.3400    248.7616  248.7616    0.0000
 1.3450    248.4826  248.4826    0.0000
 1.3500    248.0842  248.0842    0.0000
 1.3550    247.5700  247.5700    0.0000
 1.3600    246.9436  246.9436    0.0000
 1.3650    246.2087  246.2087    0.0000
 1.3700    245.3689  245.3689    0.0000
 1.3750    244.4277  244.4277    0.0000
 1.3800    243.3889  243.3889    0.0000
 1.3850    242.2561  242.2561    0.0000
 1.3900    241.0330  241.0330    0.0000
 1.3950    239.7234  239.7234    0.0000
 1.4000    238.3309  238.3309    0.0000
 1.4050    236.8590  236.8590    0.0000
 1.4100    235.3115  235.3115    0.0000
 1.4150    233.6920  233.6920    0.0000
 1.4200    232.0040  232.0040    0.0000
 1.4250    230.2512  230.2512    0.0000
 1.4300    228.4371  228.4371    0.0000
 1.4350    226.5650  226.5650    0.0000
 1.4400    224.6384  224.6384    0.0000
 1.4450    222.6607  222.6607    0.0000
 1.4500    220.6353  220.6353    0.0000
 1.4550    218.5654  218.5654    0.0000
 1.4600    216.4542  216.4542    0.0000
 1.4650    214.3048  214.3048    0.0000
 1.4700    212.1203  212.1203    0.0000
 1.4750    209.9038  209.9038    0.0000
 1.4800    207.6582  207.6582    0.0000
 1.4850    205.3863  205.3863    0.0000
 1.4900    203.0910  203.0910    0.0000
 1.4950    200.7750  200.7750    0.0000
 1.5000    198.4409  198.4409    0.0000
 1.5050    196.0912  196.0912    0.0000
 1.5100    193.7285  193.7285    0.0000
 1.5150    191.3552  191.3552    0.0000
 1.5200    188.9736  188.9736    0.0000
 1.5250    186.5860  186.5860    0.0000
 1.5300    184.1945  184.1945    0.0000
 1.5350    181.8011  181.8011    0.0000
 1.5400    179.4080  179.4080    0.0000
 1.5450    177.0170  177.0170    0.0000
 1.5500    174.6299  174.6299    0.0000
 1.5550    172.2487  172.2487    0.0000
 1.5600    169.8748  169.8748    0.0000
 1.5650    167.5099  167.5099    0.0000
 1.5700    165.1556  165.1556    0.0000
 1.5750    162.8133  162.8133    0.0000
 1.5800    160.4843  160.4843    0.0000
 1.5850    158.1702  158.1702    0.0000
 1.5900    155.8718  155.8718    0.0000
 1.5950    153.5905  153.5905    0.0000
 1.6000    151.3274  151.3274    0.0000


 DIST  NH4:   FLUX      FEKM      FIKM      JNH3
 1.1000      1.4396    1.4396    0.0000   -0.0374
 1.1050      1.5052    1.5052    0.0000   -0.0374
 1.1100      1.5676    1.5676    0.0000   -0.0374
 1.1150      1.6272    1.6272    0.0000   -0.0374
 1.1200      1.6845    1.6845    0.0000   -0.0374
 1.1250      1.7399    1.7399    0.0000   -0.0374
 1.1300      1.7937    1.7937    0.0000   -0.0374
 1.1350      1.8460    1.8460    0.0000   -0.0374
 1.1400      1.8971    1.8971    0.0000   -0.0374
 1.1450      1.9471    1.9471    0.0000   -0.0374
 1.1500      1.9961    1.9961    0.0000   -0.0374
 1.1550      2.0440    2.0440    0.0000   -0.0374
 1.1600      2.0909    2.0909    0.0000   -0.0374
 1.1650      2.1367    2.1367    0.0000   -0.0374
 1.1700      2.1815    2.1815    0.0000   -0.0374
 1.1750      2.2252    2.2252    0.0000   -0.0374
 1.1800      2.2677    2.2677    0.0000   -0.0374
 1.1850      2.3091    2.3091    0.0000   -0.0374
 1.1900      2.3492    2.3492    0.0000   -0.0374
 1.1950      2.3880    2.3880    0.0000   -0.0374
 1.2000      2.4254    2.4254    0.0000   -0.0374
 1.2050      2.4615    2.4615    0.0000   -0.0374
 1.2100      2.4962    2.4962    0.0000   -0.0374
 1.2150      2.5294    2.5294    0.0000   -0.0374
 1.2200      2.5610    2.5610    0.0000   -0.0374
 1.2250      2.5912    2.5912    0.0000   -0.0374
 1.2300      2.6197    2.6197    0.0000   -0.0374
 1.2350      2.6467    2.6467    0.0000   -0.0374
 1.2400      2.6720    2.6720    0.0000   -0.0374
 1.2450      2.6956    2.6956    0.0000   -0.0374
 1.2500      2.7175    2.7175    0.0000   -0.0374
 1.2550      2.7378    2.7378    0.0000   -0.0374
 1.2600      2.7563    2.7563    0.0000   -0.0374
 1.2650      2.7731    2.7731    0.0000   -0.0374
 1.2700      2.7882    2.7882    0.0000   -0.0374
 1.2750      2.8015    2.8015    0.0000   -0.0374
 1.2800      2.8131    2.8131    0.0000   -0.0374
 1.2850      2.8229    2.8229    0.0000   -0.0374
 1.2900      2.8310    2.8310    0.0000   -0.0374
 1.2950      2.8373    2.8373    0.0000   -0.0374
 1.3000      2.8418    2.8418    0.0000   -0.0374
 1.3050      2.8447    2.8447    0.0000   -0.0374
 1.3100      2.8458    2.8458    0.0000   -0.0374
 1.3150      2.8452    2.8452    0.0000   -0.0374
 1.3200      2.8429    2.8429    0.0000   -0.0374
 1.3250      2.8390    2.8390    0.0000   -0.0374
 1.3300      2.8334    2.8334    0.0000   -0.0374
 1.3350      2.8262    2.8262    0.0000   -0.0374
 1.3400      2.8173    2.8173    0.0000   -0.0374
 1.3450      2.8069    2.8069    0.0000   -0.0374
 1.3500      2.7949    2.7949    0.0000   -0.0374
 1.3550      2.7814    2.7814    0.0000   -0.0374
 1.3600      2.7665    2.7665    0.0000   -0.0374
 1.3650      2.7500    2.7500    0.0000   -0.0374
 1.3700      2.7321    2.7321    0.0000   -0.0374
 1.3750      2.7129    2.7129    0.0000   -0.0374
 1.3800      2.6922    2.6922    0.0000   -0.0374
 1.3850      2.6703    2.6703    0.0000   -0.0374
 1.3900      2.6471    2.6471    0.0000   -0.0374
 1.3950      2.6226    2.6226    0.0000   -0.0374
 1.4000      2.5969    2.5969    0.0000   -0.0374
 1.4050      2.5701    2.5701    0.0000   -0.0374
 1.4100      2.5421    2.5421    0.0000   -0.0374
 1.4150      2.5130    2.5130    0.0000   -0.0374
 1.4200      2.4829    2.4829    0.0000   -0.0374
 1.4250      2.4518    2.4518    0.0000   -0.0374
 1.4300      2.4198    2.4198    0.0000   -0.0374
 1.4350      2.3868    2.3868    0.0000   -0.0374
 1.4400      2.3530    2.3530    0.0000   -0.0374
 1.4450      2.3183    2.3183    0.0000   -0.0374
 1.4500      2.2828    2.2828    0.0000   -0.0374
 1.4550      2.2466    2.2466    0.0000   -0.0374
 1.4600      2.2097    2.2097    0.0000   -0.0374
 1.4650      2.1721    2.1721    0.0000   -0.0374
 1.4700      2.1339    2.1339    0.0000   -0.0374
 1.4750      2.0951    2.0951    0.0000   -0.0374
 1.4800      2.0558    2.0558    0.0000   -0.0374
 1.4850      2.0160    2.0160    0.0000   -0.0374
 1.4900      1.9757    1.9757    0.0000   -0.0374
 1.4950      1.9350    1.9350    0.0000   -0.0374
 1.5000      1.8939    1.8939    0.0000   -0.0374
 1.5050      1.8525    1.8525    0.0000   -0.0374
 1.5100      1.8107    1.8107    0.0000   -0.0374
 1.5150      1.7687    1.7687    0.0000   -0.0374
 1.5200      1.7264    1.7264    0.0000   -0.0374
 1.5250      1.6840    1.6840    0.0000   -0.0374
 1.5300      1.6413    1.6413    0.0000   -0.0374
 1.5350      1.5985    1.5985    0.0000   -0.0374
 1.5400      1.5557    1.5557    0.0000   -0.0374
 1.5450      1.5127    1.5127    0.0000   -0.0374
 1.5500      1.4697    1.4697    0.0000   -0.0374
 1.5550      1.4267    1.4267    0.0000   -0.0374
 1.5600      1.3837    1.3837    0.0000   -0.0374
 1.5650      1.3407    1.3407    0.0000   -0.0374
 1.5700      1.2978    1.2978    0.0000   -0.0374
 1.5750      1.2550    1.2550    0.0000   -0.0374
 1.5800      1.2123    1.2123    0.0000   -0.0374
 1.5850      1.1697    1.1697    0.0000   -0.0374
 1.5900      1.1273    1.1273    0.0000   -0.0374
 1.5950      1.0851    1.0851    0.0000   -0.0374
 1.6000      1.0431    1.0431    0.0000   -0.0374


 DIST  Na:   FLUX      FEKM      FIKM
 1.1000     76.7030   76.7030    0.0000
 1.1050     83.3984   83.3984    0.0000
 1.1100     90.0920   90.0920    0.0000
 1.1150     96.7548   96.7548    0.0000
 1.1200    103.3651  103.3651    0.0000
 1.1250    109.9047  109.9047    0.0000
 1.1300    116.3582  116.3582    0.0000
 1.1350    122.7125  122.7125    0.0000
 1.1400    128.9571  128.9571    0.0000
 1.1450    135.0831  135.0831    0.0000
 1.1500    141.0829  141.0829    0.0000
 1.1550    146.9503  146.9503    0.0000
 1.1600    152.6800  152.6800    0.0000
 1.1650    158.2675  158.2675    0.0000
 1.1700    163.7091  163.7091    0.0000
 1.1750    169.0014  169.0014    0.0000
 1.1800    174.1416  174.1416    0.0000
 1.1850    179.1274  179.1274    0.0000
 1.1900    183.9566  183.9566    0.0000
 1.1950    188.6275  188.6275    0.0000
 1.2000    193.1387  193.1387    0.0000
 1.2050    197.4888  197.4888    0.0000
 1.2100    201.6772  201.6772    0.0000
 1.2150    205.7029  205.7029    0.0000
 1.2200    209.5655  209.5655    0.0000
 1.2250    213.2647  213.2647    0.0000
 1.2300    216.8004  216.8004    0.0000
 1.2350    220.1728  220.1728    0.0000
 1.2400    223.3821  223.3821    0.0000
 1.2450    226.4289  226.4289    0.0000
 1.2500    229.3138  229.3138    0.0000
 1.2550    232.0377  232.0377    0.0000
 1.2600    234.6014  234.6014    0.0000
 1.2650    237.0064  237.0064    0.0000
 1.2700    239.2537  239.2537    0.0000
 1.2750    241.3448  241.3448    0.0000
 1.2800    243.2816  243.2816    0.0000
 1.2850    245.0655  245.0655    0.0000
 1.2900    246.6986  246.6986    0.0000
 1.2950    248.1827  248.1827    0.0000
 1.3000    249.5202  249.5202    0.0000
 1.3050    250.7130  250.7130    0.0000
 1.3100    251.7637  251.7637    0.0000
 1.3150    252.6747  252.6747    0.0000
 1.3200    253.4485  253.4485    0.0000
 1.3250    254.0876  254.0876    0.0000
 1.3300    254.5950  254.5950    0.0000
 1.3350    254.9733  254.9733    0.0000
 1.3400    255.2255  255.2255    0.0000
 1.3450    255.3544  255.3544    0.0000
 1.3500    255.3631  255.3631    0.0000
 1.3550    255.2546  255.2546    0.0000
 1.3600    255.0321  255.0321    0.0000
 1.3650    254.6987  254.6987    0.0000
 1.3700    254.2577  254.2577    0.0000
 1.3750    253.7121  253.7121    0.0000
 1.3800    253.0653  253.0653    0.0000
 1.3850    252.3205  252.3205    0.0000
 1.3900    251.4812  251.4812    0.0000
 1.3950    250.5505  250.5505    0.0000
 1.4000    249.5319  249.5319    0.0000
 1.4050    248.4285  248.4285    0.0000
 1.4100    247.2437  247.2437    0.0000
 1.4150    245.9809  245.9809    0.0000
 1.4200    244.6434  244.6434    0.0000
