

 DIST  Na:   FLUX      FEKM      FIKM
 1.0000    199.8911  199.8911    0.0000
 1.0025    197.0992  197.0992    0.0000
 1.0050    194.0514  194.0514    0.0000
 1.0075    190.8099  190.8099    0.0000
 1.0100    187.4258  187.4258    0.0000
 1.0125    183.9375  183.9375    0.0000
 1.0150    180.3777  180.3777    0.0000
 1.0175    176.7762  176.7762    0.0000
 1.0200    173.1609  173.1609    0.0000
 1.0225    169.5575  169.5575    0.0000
 1.0250    165.9900  165.9900    0.0000
 1.0275    162.4797  162.4797    0.0000
 1.0300    159.0456  159.0456    0.0000
 1.0325    155.7040  155.7040    0.0000
 1.0350    152.4687  152.4687    0.0000
 1.0375    149.3506  149.3506    0.0000
 1.0400    146.3584  146.3584    0.0000
 1.0425    143.4981  143.4981    0.0000
 1.0450    140.7736  140.7736    0.0000
 1.0475    138.1866  138.1866    0.0000
 1.0500    135.7371  135.7371    0.0000
 1.0525    133.4235  133.4235    0.0000
 1.0550    131.2429  131.2429    0.0000
 1.0575    129.1911  129.1911    0.0000
 1.0600    127.2632  127.2632    0.0000
 1.0625    125.4534  125.4534    0.0000
 1.0650    123.7556  123.7556    0.0000
 1.0675    122.1631  122.1631    0.0000
 1.0700    120.6693  120.6693    0.0000
 1.0725    119.2672  119.2672    0.0000
 1.0750    117.9502  117.9502    0.0000
 1.0775    116.7117  116.7117    0.0000
 1.0800    115.5451  115.5451    0.0000
 1.0825    114.4444  114.4444    0.0000
 1.0850    113.4037  113.4037    0.0000
 1.0875    112.4174  112.4174    0.0000
 1.0900    111.4804  111.4804    0.0000
 1.0925    110.5881  110.5881    0.0000
 1.0950    109.7358  109.7358    0.0000
 1.0975    108.9195  108.9195    0.0000
 1.1000    108.1356  108.1356    0.0000


 DIST  K:     FLUX      FEKM      FIKM
 1.0000     19.2334   19.2334    0.0000
 1.0025     18.9314   18.9314    0.0000
 1.0050     18.6144   18.6144    0.0000
 1.0075     18.2855   18.2855    0.0000
 1.0100     17.9477   17.9477    0.0000
 1.0125     17.6031   17.6031    0.0000
 1.0150     17.2536   17.2536    0.0000
 1.0175     16.9008   16.9008    0.0000
 1.0200     16.5465   16.5465    0.0000
 1.0225     16.1921   16.1921    0.0000
 1.0250     15.8391   15.8391    0.0000
 1.0275     15.4888   15.4888    0.0000
 1.0300     15.1422   15.1422    0.0000
 1.0325     14.8004   14.8004    0.0000
 1.0350     14.4643   14.4643    0.0000
 1.0375     14.1346   14.1346    0.0000
 1.0400     13.8118   13.8118    0.0000
 1.0425     13.4965   13.4965    0.0000
 1.0450     13.1888   13.1888    0.0000
 1.0475     12.8892   12.8892    0.0000
 1.0500     12.5976   12.5976    0.0000
 1.0525     12.3142   12.3142    0.0000
 1.0550     12.0388   12.0388    0.0000
 1.0575     11.7714   11.7714    0.0000
 1.0600     11.5118   11.5118    0.0000
 1.0625     11.2597   11.2597    0.0000
 1.0650     11.0151   11.0151    0.0000
 1.0675     10.7776   10.7776    0.0000
 1.0700     10.5469   10.5469    0.0000
 1.0725     10.3228   10.3228    0.0000
 1.0750     10.1049   10.1049    0.0000
 1.0775      9.8931    9.8931    0.0000
 1.0800      9.6870    9.6870    0.0000
 1.0825      9.4864    9.4864    0.0000
 1.0850      9.2910    9.2910    0.0000
 1.0875      9.1006    9.1006    0.0000
 1.0900      8.9149    8.9149    0.0000
 1.0925      8.7338    8.7338    0.0000
 1.0950      8.5570    8.5570    0.0000
 1.0975      8.3844    8.3844    0.0000
 1.1000      8.2159    8.2159    0.0000


 DIST  Cl:   FLUX      FEKM      FIKM
 1.0000    223.7602  223.7602    0.0000
 1.0025    220.6760  220.6760    0.0000
 1.0050    217.3173  217.3173    0.0000
 1.0075    213.7515  213.7515    0.0000
 1.0100    210.0331  210.0331    0.0000
 1.0125    206.2028  206.2028    0.0000
 1.0150    202.2949  202.2949    0.0000
 1.0175    198.3409  198.3409    0.0000
 1.0200    194.3702  194.3702    0.0000
 1.0225    190.4099  190.4099    0.0000
 1.0250    186.4852  186.4852    0.0000
 1.0275    182.6188  182.6188    0.0000
 1.0300    178.8307  178.8307    0.0000
 1.0325    175.1384  175.1384    0.0000
 1.0350    171.5563  171.5563    0.0000
 1.0375    168.0962  168.0962    0.0000
 1.0400    164.7674  164.7674    0.0000
 1.0425    161.5764  161.5764    0.0000
 1.0450    158.5274  158.5274    0.0000
 1.0475    155.6226  155.6226    0.0000
 1.0500    152.8621  152.8621    0.0000
 1.0525    150.2444  150.2444    0.0000
 1.0550    147.7665  147.7665    0.0000
 1.0575    145.4244  145.4244    0.0000
 1.0600    143.2130  143.2130    0.0000
 1.0625    141.1263  141.1263    0.0000
 1.0650    139.1580  139.1580    0.0000
 1.0675    137.3014  137.3014    0.0000
 1.0700    135.5495  135.5495    0.0000
 1.0725    133.8952  133.8952    0.0000
 1.0750    132.3315  132.3315    0.0000
 1.0775    130.8516  130.8516    0.0000
 1.0800    129.4487  129.4487    0.0000
 1.0825    128.1165  128.1165    0.0000
 1.0850    126.8489  126.8489    0.0000
 1.0875    125.6400  125.6400    0.0000
 1.0900    124.4846  124.4846    0.0000
 1.0925    123.3777  123.3777    0.0000
 1.0950    122.3145  122.3145    0.0000
 1.0975    121.2910  121.2910    0.0000
 1.1000    120.3031  120.3031    0.0000


 DIST  NH4:   FLUX      FEKM      FIKM      JNH3
 1.0000      3.4711    3.4711    0.0000   -9.1083
 1.0025      3.4369    3.4369    0.0000   -9.1083
 1.0050      3.3996    3.3996    0.0000   -9.1083
 1.0075      3.3598    3.3598    0.0000   -9.1083
 1.0100      3.3181    3.3181    0.0000   -9.1083
 1.0125      3.2750    3.2750    0.0000   -9.1083
 1.0150      3.2309    3.2309    0.0000   -9.1083
 1.0175      3.1863    3.1863    0.0000   -9.1083
 1.0200      3.1416    3.1416    0.0000   -9.1083
 1.0225      3.0972    3.0972    0.0000   -9.1083
 1.0250      3.0535    3.0535    0.0000   -9.1083
 1.0275      3.0109    3.0109    0.0000   -9.1083
 1.0300      2.9697    2.9697    0.0000   -9.1083
 1.0325      2.9300    2.9300    0.0000   -9.1083
 1.0350      2.8923    2.8923    0.0000   -9.1083
 1.0375      2.8567    2.8567    0.0000   -9.1083
 1.0400      2.8233    2.8233    0.0000   -9.1083
 1.0425      2.7922    2.7922    0.0000   -9.1083
 1.0450      2.7636    2.7636    0.0000   -9.1083
 1.0475      2.7375    2.7375    0.0000   -9.1083
 1.0500      2.7139    2.7139    0.0000   -9.1083
 1.0525      2.6927    2.6927    0.0000   -9.1083
 1.0550      2.6740    2.6740    0.0000   -9.1083
 1.0575      2.6576    2.6576    0.0000   -9.1083
 1.0600      2.6435    2.6435    0.0000   -9.1083
 1.0625      2.6315    2.6315    0.0000   -9.1083
 1.0650      2.6216    2.6216    0.0000   -9.1083
 1.0675      2.6136    2.6136    0.0000   -9.1083
 1.0700      2.6074    2.6074    0.0000   -9.1083
 1.0725      2.6028    2.6028    0.0000   -9.1083
 1.0750      2.5997    2.5997    0.0000   -9.1083
 1.0775      2.5980    2.5980    0.0000   -9.1083
 1.0800      2.5974    2.5974    0.0000   -9.1083
 1.0825      2.5980    2.5980    0.0000   -9.1083
 1.0850      2.5994    2.5994    0.0000   -9.1083
 1.0875      2.6017    2.6017    0.0000   -9.1083
 1.0900      2.6046    2.6046    0.0000   -9.1083
 1.0925      2.6081    2.6081    0.0000   -9.1083
 1.0950      2.6120    2.6120    0.0000   -9.1083
 1.0975      2.6162    2.6162    0.0000   -9.1083
 1.1000      2.6205    2.6205    0.0000   -9.1083


 DIST  Na:   FLUX      FEKM      FIKM
 1.0000    213.6696  213.6696    0.0000
 1.0025    212.1297  212.1297    0.0000
 1.0050    210.2937  210.2937    0.0000
 1.0075    208.2006  208.2006    0.0000
 1.0100    205.8875  205.8875    0.0000
 1.0125    203.3826  203.3826    0.0000
 1.0150    200.7102  200.7102    0.0000
 1.0175    197.8935  197.8935    0.0000
 1.0200    194.9554  194.9554    0.0000
 1.0225    191.9190  191.9190    0.0000
 1.0250    188.8068  188.8068    0.0000
 1.0275    185.6411  185.6411    0.0000
 1.0300    182.4436  182.4436    0.0000
 1.0325    179.2347  179.2347    0.0000
 1.0350    176.0337  176.0337    0.0000
 1.0375    172.8585  172.8585    0.0000
 1.0400    169.7254  169.7254    0.0000
 1.0425    166.6488  166.6488    0.0000
 1.0450    163.6414  163.6414    0.0000
 1.0475    160.7141  160.7141    0.0000
 1.0500    157.8759  157.8759    0.0000
 1.0525    155.1340  155.1340    0.0000
 1.0550    152.4941  152.4941    0.0000
 1.0575    149.9598  149.9598    0.0000
 1.0600    147.5337  147.5337    0.0000
 1.0625    145.2168  145.2168    0.0000
 1.0650    143.0089  143.0089    0.0000
 1.0675    140.9088  140.9088    0.0000
 1.0700    138.9143  138.9143    0.0000
 1.0725    137.0225  137.0225    0.0000
 1.0750    135.2297  135.2297    0.0000
 1.0775    133.5320  133.5320    0.0000
 1.0800    131.9249  131.9249    0.0000
 1.0825    130.4037  130.4037    0.0000
 1.0850    128.9635  128.9635    0.0000
 1.0875    127.5992  127.5992    0.0000
 1.0900    126.3061  126.3061    0.0000
 1.0925    125.0791  125.0791    0.0000
 1.0950    123.9135  123.9135    0.0000
 1.0975    122.8046  122.8046    0.0000
 1.1000    121.7479  121.7479    0.0000


 DIST  K:     FLUX      FEKM      FIKM
 1.0000     21.0762   21.0762    0.0000
 1.0025     20.8553   20.8553    0.0000
 1.0050     20.6167   20.6167    0.0000
 1.0075     20.3625   20.3625    0.0000
 1.0100     20.0948   20.0948    0.0000
 1.0125     19.8150   19.8150    0.0000
 1.0150     19.5246   19.5246    0.0000
 1.0175     19.2250   19.2250    0.0000
 1.0200     18.9175   18.9175    0.0000
 1.0225     18.6035   18.6035    0.0000
 1.0250     18.2842   18.2842    0.0000
 1.0275     17.9611   17.9611    0.0000
 1.0300     17.6353   17.6353    0.0000
 1.0325     17.3080   17.3080    0.0000
 1.0350     16.9805   16.9805    0.0000
 1.0375     16.6538   16.6538    0.0000
 1.0400     16.3288   16.3288    0.0000
 1.0425     16.0065   16.0065    0.0000
 1.0450     15.6876   15.6876    0.0000
 1.0475     15.3729   15.3729    0.0000
 1.0500     15.0629   15.0629    0.0000
 1.0525     14.7581   14.7581    0.0000
 1.0550     14.4589   14.4589    0.0000
 1.0575     14.1657   14.1657    0.0000
 1.0600     13.8786   13.8786    0.0000
 1.0625     13.5979   13.5979    0.0000
 1.0650     13.3236   13.3236    0.0000
 1.0675     13.0557   13.0557    0.0000
 1.0700     12.7943   12.7943    0.0000
 1.0725     12.5392   12.5392    0.0000
 1.0750     12.2904   12.2904    0.0000
 1.0775     12.0478   12.0478    0.0000
 1.0800     11.8112   11.8112    0.0000
 1.0825     11.5804   11.5804    0.0000
 1.0850     11.3552   11.3552    0.0000
 1.0875     11.1355   11.1355    0.0000
 1.0900     10.9211   10.9211    0.0000
 1.0925     10.7117   10.7117    0.0000
 1.0950     10.5072   10.5072    0.0000
 1.0975     10.3074   10.3074    0.0000
 1.1000     10.1121   10.1121    0.0000


 DIST  Cl:   FLUX      FEKM      FIKM
 1.0000    239.2779  239.2779    0.0000
 1.0025    237.5193  237.5193    0.0000
 1.0050    235.4443  235.4443    0.0000
 1.0075    233.0958  233.0958    0.0000
 1.0100    230.5136  230.5136    0.0000
 1.0125    227.7275  227.7275    0.0000
 1.0150    224.7632  224.7632    0.0000
 1.0175    221.6452  221.6452    0.0000
 1.0200    218.3974  218.3974    0.0000
 1.0225    215.0442  215.0442    0.0000
 1.0250    211.6092  211.6092    0.0000
 1.0275    208.1161  208.1161    0.0000
 1.0300    204.5874  204.5874    0.0000
 1.0325    201.0449  201.0449    0.0000
 1.0350    197.5090  197.5090    0.0000
 1.0375    193.9984  193.9984    0.0000
 1.0400    190.5305  190.5305    0.0000
 1.0425    187.1205  187.1205    0.0000
 1.0450    183.7819  183.7819    0.0000
 1.0475    180.5263  180.5263    0.0000
 1.0500    177.3634  177.3634    0.0000
 1.0525    174.3009  174.3009    0.0000
 1.0550    171.3447  171.3447    0.0000
 1.0575    168.4990  168.4990    0.0000
 1.0600    165.7667  165.7667    0.0000
 1.0625    163.1489  163.1489    0.0000
 1.0650    160.6455  160.6455    0.0000
 1.0675    158.2555  158.2555    0.0000
 1.0700    155.9767  155.9767    0.0000
 1.0725    153.8061  153.8061    0.0000
 1.0750    151.7401  151.7401    0.0000
 1.0775    149.7745  149.7745    0.0000
 1.0800    147.9049  147.9049    0.0000
 1.0825    146.1262  146.1262    0.0000
 1.0850    144.4336  144.4336    0.0000
 1.0875    142.8218  142.8218    0.0000
 1.0900    141.2857  141.2857    0.0000
 1.0925    139.8203  139.8203    0.0000
 1.0950    138.4205  138.4205    0.0000
 1.0975    137.0815  137.0815    0.0000
 1.1000    135.7986  135.7986    0.0000


 DIST  NH4:   FLUX      FEKM      FIKM      JNH3
 1.0000      3.5745    3.5745    0.0000  -10.5035
 1.0025      3.5575    3.5575    0.0000  -10.5035
 1.0050      3.5370    3.5370    0.0000  -10.5035
 1.0075      3.5132    3.5132    0.0000  -10.5035
 1.0100      3.4865    3.4865    0.0000  -10.5035
 1.0125      3.4572    3.4572    0.0000  -10.5035
 1.0150      3.4257    3.4257    0.0000  -10.5035
 1.0175      3.3922    3.3922    0.0000  -10.5035
 1.0200      3.3571    3.3571    0.0000  -10.5035
 1.0225      3.3207    3.3207    0.0000  -10.5035
 1.0250      3.2833    3.2833    0.0000  -10.5035
 1.0275      3.2453    3.2453    0.0000  -10.5035
 1.0300      3.2070    3.2070    0.0000  -10.5035
 1.0325      3.1686    3.1686    0.0000  -10.5035
 1.0350      3.1307    3.1307    0.0000  -10.5035
 1.0375      3.0933    3.0933    0.0000  -10.5035
 1.0400      3.0568    3.0568    0.0000  -10.5035
 1.0425      3.0214    3.0214    0.0000  -10.5035
 1.0450      2.9873    2.9873    0.0000  -10.5035
 1.0475      2.9547    2.9547    0.0000  -10.5035
 1.0500      2.9238    2.9238    0.0000  -10.5035
 1.0525      2.8947    2.8947    0.0000  -10.5035
 1.0550      2.8674    2.8674    0.0000  -10.5035
 1.0575      2.8421    2.8421    0.0000  -10.5035
 1.0600      2.8189    2.8189    0.0000  -10.5035
 1.0625      2.7976    2.7976    0.0000  -10.5035
 1.0650      2.7784    2.7784    0.0000  -10.5035
 1.0675      2.7611    2.7611    0.0000  -10.5035
 1.0700      2.7458    2.7458    0.0000  -10.5035
 1.0725      2.7324    2.7324    0.0000  -10.5035
 1.0750      2.7208    2.7208    0.0000  -10.5035
 1.0775      2.7109    2.7109    0.0000  -10.5035
 1.0800      2.7027    2.7027    0.0000  -10.5035
 1.0825      2.6960    2.6960    0.0000  -10.5035
 1.0850      2.6907    2.6907    0.0000  -10.5035
 1.0875      2.6868    2.6868    0.0000  -10.5035
 1.0900      2.6840    2.6840    0.0000  -10.5035
 1.0925      2.6824    2.6824    0.0000  -10.5035
 1.0950      2.6817    2.6817    0.0000  -10.5035
 1.0975      2.6818    2.6818    0.0000  -10.5035
 1.1000      2.6828    2.6828    0.0000  -10.5035


 DIST  Na:   FLUX      FEKM      FIKM
 1.0000    223.8437  223.8437    0.0000
 1.0025    223.2853  223.2853    0.0000
 1.0050    222.4241  222.4241    0.0000
 1.0075    221.2834  221.2834    0.0000
 1.0100    219.8900  219.8900    0.0000
 1.0125    218.2637  218.2637    0.0000
 1.0150    216.4212  216.4212    0.0000
 1.0175    214.3788  214.3788    0.0000
 1.0200    212.1533  212.1533    0.0000
 1.0225    209.7621  209.7621    0.0000
 1.0250    207.2235  207.2235    0.0000
 1.0275    204.5564  204.5564    0.0000
 1.0300    201.7801  201.7801    0.0000
 1.0325    198.9138  198.9138    0.0000
 1.0350    195.9771  195.9771    0.0000
 1.0375    192.9888  192.9888    0.0000
 1.0400    189.9674  189.9674    0.0000
 1.0425    186.9305  186.9305    0.0000
 1.0450    183.8947  183.8947    0.0000
 1.0475    180.8756  180.8756    0.0000
 1.0500    177.8873  177.8873    0.0000
 1.0525    174.9428  174.9428    0.0000
 1.0550    172.0533  172.0533    0.0000
 1.0575    169.2289  169.2289    0.0000
 1.0600    166.4780  166.4780    0.0000
 1.0625    163.8076  163.8076    0.0000
 1.0650    161.2234  161.2234    0.0000
 1.0675    158.7295  158.7295    0.0000
 1.0700    156.3289  156.3289    0.0000
 1.0725    154.0236  154.0236    0.0000
 1.0750    151.8141  151.8141    0.0000
 1.0775    149.7003  149.7003    0.0000
 1.0800    147.6812  147.6812    0.0000
 1.0825    145.7549  145.7549    0.0000
 1.0850    143.9192  143.9192    0.0000
 1.0875    142.1711  142.1711    0.0000
 1.0900    140.5072  140.5072    0.0000
 1.0925    138.9240  138.9240    0.0000
 1.0950    137.4177  137.4177    0.0000
 1.0975    135.9841  135.9841    0.0000
 1.1000    134.6193  134.6193    0.0000


 DIST  K:     FLUX      FEKM      FIKM
 1.0000     22.5530   22.5530    0.0000
 1.0025     22.3967   22.3967    0.0000
 1.0050     22.2220   22.2220    0.0000
 1.0075     22.0302   22.0302    0.0000
 1.0100     21.8228   21.8228    0.0000
 1.0125     21.6009   21.6009    0.0000
 1.0150     21.3655   21.3655    0.0000
 1.0175     21.1175   21.1175    0.0000
 1.0200     20.8580   20.8580    0.0000
 1.0225     20.5879   20.5879    0.0000
 1.0250     20.3084   20.3084    0.0000
 1.0275     20.0205   20.0205    0.0000
 1.0300     19.7255   19.7255    0.0000
 1.0325     19.4243   19.4243    0.0000
 1.0350     19.1182   19.1182    0.0000
 1.0375     18.8083   18.8083    0.0000
 1.0400     18.4957   18.4957    0.0000
 1.0425     18.1813   18.1813    0.0000
 1.0450     17.8663   17.8663    0.0000
 1.0475     17.5514   17.5514    0.0000
 1.0500     17.2376   17.2376    0.0000
 1.0525     16.9257   16.9257    0.0000
 1.0550     16.6164   16.6164    0.0000
 1.0575     16.3102   16.3102    0.0000
 1.0600     16.0078   16.0078    0.0000
 1.0625     15.7096   15.7096    0.0000
 1.0650     15.4161   15.4161    0.0000
 1.0675     15.1274   15.1274    0.0000
 1.0700     14.8440   14.8440    0.0000
 1.0725     14.5659   14.5659    0.0000
 1.0750     14.2933   14.2933    0.0000
 1.0775     14.0263   14.0263    0.0000
 1.0800     13.7650   13.7650    0.0000
 1.0825     13.5093   13.5093    0.0000
 1.0850     13.2591   13.2591    0.0000
 1.0875     13.0145   13.0145    0.0000
 1.0900     12.7753   12.7753    0.0000
 1.0925     12.5413   12.5413    0.0000
 1.0950     12.3126   12.3126    0.0000
 1.0975     12.0888   12.0888    0.0000
 1.1000     11.8700   11.8700    0.0000


 DIST  Cl:   FLUX      FEKM      FIKM
 1.0000    250.8407  250.8407    0.0000
 1.0025    250.1219  250.1219    0.0000
 1.0050    249.0800  249.0800    0.0000
 1.0075    247.7413  247.7413    0.0000
 1.0100    246.1346  246.1346    0.0000
 1.0125    244.2810  244.2810    0.0000
 1.0150    242.1983  242.1983    0.0000
 1.0175    239.9034  239.9034    0.0000
 1.0200    237.4140  237.4140    0.0000
 1.0225    234.7485  234.7485    0.0000
 1.0250    231.9261  231.9261    0.0000
 1.0275    228.9665  228.9665    0.0000
 1.0300    225.8900  225.8900    0.0000
 1.0325    222.7170  222.7170    0.0000
 1.0350    219.4680  219.4680    0.0000
 1.0375    216.1628  216.1628    0.0000
 1.0400    212.8210  212.8210    0.0000
 1.0425    209.4610  209.4610    0.0000
 1.0450    206.1005  206.1005    0.0000
 1.0475    202.7559  202.7559    0.0000
 1.0500    199.4422  199.4422    0.0000
 1.0525    196.1730  196.1730    0.0000
 1.0550    192.9605  192.9605    0.0000
 1.0575    189.8152  189.8152    0.0000
 1.0600    186.7461  186.7461    0.0000
 1.0625    183.7608  183.7608    0.0000
 1.0650    180.8652  180.8652    0.0000
 1.0675    178.0641  178.0641    0.0000
 1.0700    175.3605  175.3605    0.0000
 1.0725    172.7566  172.7566    0.0000
 1.0750    170.2533  170.2533    0.0000
 1.0775    167.8504  167.8504    0.0000
 1.0800    165.5472  165.5472    0.0000
 1.0825    163.3417  163.3417    0.0000
 1.0850    161.2316  161.2316    0.0000
 1.0875    159.2139  159.2139    0.0000
 1.0900    157.2852  157.2852    0.0000
 1.0925    155.4420  155.4420    0.0000
 1.0950    153.6801  153.6801    0.0000
 1.0975    151.9955  151.9955    0.0000
 1.1000    150.3838  150.3838    0.0000


 DIST  NH4:   FLUX      FEKM      FIKM      JNH3
 1.0000      3.6461    3.6461    0.0000  -11.6180
 1.0025      3.6423    3.6423    0.0000  -11.6180
 1.0050      3.6350    3.6350    0.0000  -11.6180
 1.0075      3.6243    3.6243    0.0000  -11.6180
 1.0100      3.6103    3.6103    0.0000  -11.6180
 1.0125      3.5932    3.5932    0.0000  -11.6180
 1.0150      3.5733    3.5733    0.0000  -11.6180
 1.0175      3.5508    3.5508    0.0000  -11.6180
 1.0200      3.5257    3.5257    0.0000  -11.6180
 1.0225      3.4984    3.4984    0.0000  -11.6180
 1.0250      3.4692    3.4692    0.0000  -11.6180
 1.0275      3.4382    3.4382    0.0000  -11.6180
