

 DIST  Na:   FLUX      FEKM      FIKM     JNKCC     JNHE3    Na,K-ATP   JNAHS      JNAB
 1.3000    358.9551   20.7034  338.2517  132.0135  206.1673  371.4877  -30.5292  -61.8116
 1.3025    357.3276   19.5281  337.7995  133.6201  204.1083  371.3135  -30.7889  -62.2880
 1.3050    355.5083   18.4697  337.0385  135.0998  201.8676  370.8310  -31.0468  -62.7628
 1.3075    353.5202   17.5227  335.9975  136.4620  199.4643  370.0655  -31.3003  -63.2301
 1.3100    351.3810   16.6815  334.6995  137.7161  196.9121  369.0391  -31.5485  -63.6880
 1.3125    349.1070   15.9399  333.1670  138.8694  194.2263  367.7733  -31.7907  -64.1351
 1.3150    346.7144   15.2911  331.4233  139.9276  191.4243  366.2901  -32.0260  -64.5697
 1.3175    344.2203   14.7276  329.4927  140.8954  188.5260  364.6129  -32.2537  -64.9899
 1.3200    341.6428   14.2413  327.4015  141.7767  185.5535  362.7668  -32.4727  -65.3941
 1.3225    339.0007   13.8236  325.1771  142.5748  182.5311  360.7782  -32.6823  -65.7806
 1.3250    336.3139   13.4657  322.8482  143.2933  179.4839  358.6746  -32.8818  -66.1481
 1.3275    333.6022   13.1588  320.4434  143.9356  176.4370  356.4841  -33.0708  -66.4957
 1.3300    330.8850   12.8944  317.9906  144.5052  173.4147  354.2340  -33.2489  -66.8228
 1.3325    328.1801   12.6643  315.5158  145.0063  170.4390  351.9502  -33.4161  -67.1294
 1.3350    325.5037   12.4614  313.0423  145.4429  167.5291  349.6561  -33.5726  -67.4158
 1.3375    322.8693   12.2792  310.5901  145.8194  164.7006  347.3719  -33.7188  -67.6829
 1.3400    320.2875   12.1121  308.1754  146.1402  161.9654  345.1142  -33.8553  -67.9317
 1.3425    317.7660   11.9556  305.8104  146.4095  159.3313  342.8961  -33.9828  -68.1635
 1.3450    315.3097   11.8061  303.5037  146.6316  156.8028  340.7270  -34.1019  -68.3799
 1.3475    312.9212   11.6605  301.2607  146.8102  154.3814  338.6129  -34.2135  -68.5822
 1.3500    310.6004   11.5168  299.0836  146.9491  152.0657  336.5571  -34.3185  -68.7721
 1.3525    308.3459   11.3733  296.9726  147.0516  149.8525  334.5606  -34.4175  -68.9511
 1.3550    306.1547   11.2289  294.9258  147.1206  147.7370  332.6221  -34.5113  -69.1204
 1.3575    304.0228   11.0829  292.9398  147.1586  145.7133  330.7394  -34.6006  -69.2815
 1.3600    301.9454   10.9348  291.0106  147.1681  143.7749  328.9087  -34.6860  -69.4354
 1.3625    299.9175   10.7844  289.1331  147.1510  141.9147  327.1258  -34.7681  -69.5833
 1.3650    297.9337   10.6316  287.3021  147.1091  140.1260  325.3861  -34.8473  -69.7259
 1.3675    295.9886   10.4764  285.5122  147.0438  138.4017  323.6846  -34.9242  -69.8643
 1.3700    294.0769   10.3190  283.7580  146.9564  136.7351  322.0164  -34.9990  -69.9989
 1.3725    292.1937   10.1595  282.0342  146.8481  135.1199  320.3765  -35.0721  -70.1305
 1.3750    290.3339    9.9982  280.3358  146.7197  133.5502  318.7603  -35.1437  -70.2595
 1.3775    288.4933    9.8353  278.6580  146.5720  132.0204  317.1633  -35.2142  -70.3864
 1.3800    286.6674    9.6710  276.9964  146.4058  130.5254  315.5814  -35.2838  -70.5116
 1.3825    284.8525    9.5055  275.3470  146.2214  129.0606  314.0105  -35.3525  -70.6352
 1.3850    283.0451    9.3391  273.7060  146.0195  127.6218  312.4473  -35.4205  -70.7577
 1.3875    281.2419    9.1719  272.0700  145.8004  126.2052  310.8883  -35.4880  -70.8791
 1.3900    279.4401    9.0042  270.4359  145.5644  124.8074  309.3308  -35.5550  -70.9996
 1.3925    277.6371    8.8360  268.8011  145.3117  123.4256  307.7720  -35.6217  -71.1194
 1.3950    275.8306    8.6675  267.1631  145.0426  122.0570  306.2096  -35.6880  -71.2385
 1.3975    274.0187    8.4989  265.5198  144.7572  120.6994  304.6416  -35.7540  -71.3570
 1.4000    272.1995    8.3301  263.8694  144.4556  119.3508  303.0661  -35.8197  -71.4749
 1.4025    270.3715    8.1613  262.2102  144.1381  118.0095  301.4816  -35.8852  -71.5924
 1.4050    268.5334    7.9925  260.5410  143.8046  116.6740  299.8868  -35.9505  -71.7092
 1.4075    266.6841    7.8237  258.8604  143.4552  115.3431  298.2803  -36.0155  -71.8256
 1.4100    264.8225    7.6549  257.1676  143.0900  114.0159  296.6614  -36.0803  -71.9414
 1.4125    262.9480    7.4861  255.4619  142.7089  112.6914  295.0292  -36.1449  -72.0565
 1.4150    261.0598    7.3174  253.7425  142.3122  111.3690  293.3831  -36.2091  -72.1711
 1.4175    259.1575    7.1485  252.0090  141.8998  110.0482  291.7226  -36.2732  -72.2850
 1.4200    257.2406    6.9796  250.2610  141.4717  108.7286  290.0472  -36.3369  -72.3981
 1.4225    255.3089    6.8105  248.4984  141.0280  107.4100  288.3569  -36.4002  -72.5105
 1.4250    253.3622    6.6411  246.7211  140.5687  106.0922  286.6514  -36.4633  -72.6221
 1.4275    251.4004    6.4714  244.9290  140.0940  104.7751  284.9308  -36.5259  -72.7327
 1.4300    249.4235    6.3013  243.1222  139.6039  103.4586  283.1950  -36.5881  -72.8424
 1.4325    247.4316    6.1307  241.3009  139.0985  102.1430  281.4442  -36.6499  -72.9510
 1.4350    245.4248    5.9595  239.4653  138.5779  100.8283  279.6786  -36.7112  -73.0586
 1.4375    243.4034    5.7876  237.6159  138.0423   99.5148  277.8985  -36.7720  -73.1650
 1.4400    241.3677    5.6148  235.7529  137.4918   98.2026  276.1043  -36.8322  -73.2701
 1.4425    239.3179    5.4411  233.8768  136.9265   96.8920  274.2963  -36.8919  -73.3740
 1.4450    237.2545    5.2664  231.9881  136.3468   95.5833  272.4751  -36.9509  -73.4765
 1.4475    235.1780    5.0906  230.0873  135.7527   94.2769  270.6411  -37.0093  -73.5775
 1.4500    233.0887    4.9136  228.1752  135.1446   92.9732  268.7949  -37.0670  -73.6771
 1.4525    230.9874    4.7352  226.2522  134.5226   91.6724  266.9371  -37.1239  -73.7751
 1.4550    228.8745    4.5553  224.3192  133.8872   90.3750  265.0684  -37.1801  -73.8714
 1.4575    226.7507    4.3740  222.3768  133.2386   89.0815  263.1894  -37.2355  -73.9660
 1.4600    224.6167    4.1910  220.4257  132.5772   87.7921  261.3009  -37.2901  -74.0589
 1.4625    222.4732    4.0063  218.4668  131.9032   86.5074  259.4036  -37.3439  -74.1499
 1.4650    220.3208    3.8199  216.5010  131.2172   85.2278  257.4983  -37.3967  -74.2391
 1.4675    218.1605    3.6315  214.5290  130.5196   83.9537  255.5858  -37.4486  -74.3263
 1.4700    215.9929    3.4412  212.5517  129.8107   82.6856  253.6670  -37.4995  -74.4115
 1.4725    213.8190    3.2490  210.5700  129.0911   81.4238  251.7427  -37.5495  -74.4946
 1.4750    211.6395    3.0546  208.5848  128.3611   80.1688  249.8138  -37.5985  -74.5757
 1.4775    209.4553    2.8582  206.5971  127.6214   78.9211  247.8812  -37.6464  -74.6545
 1.4800    207.2674    2.6596  204.6079  126.8725   77.6810  245.9459  -37.6932  -74.7312
 1.4825    205.0767    2.4588  202.6179  126.1148   76.4490  244.0086  -37.7389  -74.8055
 1.4850    202.8840    2.2557  200.6283  125.3489   75.2255  242.0704  -37.7835  -74.8776
 1.4875    200.6904    2.0505  198.6399  124.5755   74.0109  240.1322  -37.8269  -74.9473
 1.4900    198.4967    1.8429  196.6538  123.7950   72.8055  238.1950  -37.8692  -75.0147
 1.4925    196.3039    1.6331  194.6708  123.0081   71.6097  236.2596  -37.9103  -75.0796
 1.4950    194.1130    1.4210  192.6920  122.2154   70.4239  234.3270  -37.9501  -75.1421
 1.4975    191.9249    1.2066  190.7183  121.4174   69.2484  232.3981  -37.9887  -75.2020
 1.5000    189.7405    0.9899  188.7506  120.6148   68.0835  230.4739  -38.0261  -75.2595


 DIST  K:     FLUX      FEKM      FIKM     JNKCC      GIKM    Na,K-ATP    JKCC    GIKS+GJK
 1.3000    -38.4265    0.2746  -38.7011  -19.6742  -19.0270 -163.5710  110.2962   14.5736
 1.3025    -34.3410    0.3439  -34.6849  -15.7268  -18.9582 -165.0370  113.8321   16.5200
 1.3050    -30.4702    0.4040  -30.8742  -11.8632  -19.0110 -166.2723  117.0497   18.3485
 1.3075    -26.7975    0.4553  -27.2529   -8.0714  -19.1814 -167.2950  119.9793   20.0629
 1.3100    -23.3086    0.4984  -23.8070   -4.3426  -19.4644 -168.1210  122.6477   21.6662
 1.3125    -19.9928    0.5338  -20.5266   -0.6734  -19.8532 -168.7647  125.0778   23.1603
 1.3150    -16.8430    0.5618  -17.4048    2.9349  -20.3396 -169.2401  127.2890   24.5464
 1.3175    -13.8549    0.5830  -14.4379    6.4763  -20.9142 -169.5611  129.2981   25.8251
 1.3200    -11.0268    0.5977  -11.6245    9.9417  -21.5662 -169.7417  131.1205   26.9968
 1.3225     -8.3584    0.6064   -8.9648   13.3196  -22.2844 -169.7962  132.7700   28.0613
 1.3250     -5.8506    0.6096   -6.4602   16.5969  -23.0571 -169.7392  134.2600   29.0190
 1.3275     -3.5047    0.6077   -4.1124   19.7603  -23.8727 -169.5858  135.6031   29.8703
 1.3300     -1.3216    0.6011   -1.9227   22.7975  -24.7202 -169.3506  136.8117   30.6162
 1.3325      0.6985    0.5902    0.1083   25.6978  -25.5895 -169.0479  137.8978   31.2584
 1.3350      2.5571    0.5755    1.9815   28.4530  -26.4715 -168.6909  138.8731   31.7993
 1.3375      4.2566    0.5574    3.6992   31.0579  -27.3587 -168.2917  139.7487   32.2422
 1.3400      5.8013    0.5361    5.2653   33.5101  -28.2448 -167.8610  140.5354   32.5909
 1.3425      7.1970    0.5120    6.6851   35.8100  -29.1249 -167.4079  141.2430   32.8499
 1.3450      8.4506    0.4854    7.9652   37.9605  -29.9953 -166.9397  141.8808   33.0241
 1.3475      9.5699    0.4566    9.1133   39.9667  -30.8534 -166.4624  142.4570   33.1188
 1.3500     10.5635    0.4259   10.1376   41.8351  -31.6975 -165.9806  142.9790   33.1392
 1.3525     11.4403    0.3935   11.0468   43.5734  -32.5266 -165.4975  143.4536   33.0907
 1.3550     12.2094    0.3596   11.8498   45.1899  -33.3401 -165.0153  143.8865   32.9787
 1.3575     12.8797    0.3244   12.5553   46.6935  -34.1382 -164.5355  144.2828   32.8081
 1.3600     13.4600    0.2880   13.1720   48.0928  -34.9209 -164.0587  144.6469   32.5838
 1.3625     13.9585    0.2507   13.7079   49.3965  -35.6887 -163.5851  144.9826   32.3104
 1.3650     14.3833    0.2125   14.1708   50.6130  -36.4422 -163.1144  145.2932   31.9921
 1.3675     14.7416    0.1735   14.5681   51.7500  -37.1819 -162.6462  145.5814   31.6329
 1.3700     15.0403    0.1340   14.9064   52.8151  -37.9087 -162.1797  145.8497   31.2363
 1.3725     15.2857    0.0939   15.1918   53.8149  -38.6231 -161.7139  146.1000   30.8057
 1.3750     15.4835    0.0534   15.4301   54.7559  -39.3257 -161.2480  146.3341   30.3441
 1.3775     15.6389    0.0125   15.6264   55.6437  -40.0173 -160.7810  146.5533   29.8541
 1.3800     15.7566   -0.0287   15.7853   56.4835  -40.6982 -160.3118  146.7589   29.3381
 1.3825     15.8408   -0.0701   15.9109   57.2801  -41.3692 -159.8395  146.9519   28.7985
 1.3850     15.8954   -0.1117   16.0070   58.0375  -42.0305 -159.3633  147.1332   28.2371
 1.3875     15.9236   -0.1533   16.0769   58.7596  -42.6827 -158.8821  147.3033   27.6558
 1.3900     15.9284   -0.1951   16.1235   59.4496  -43.3261 -158.3953  147.4628   27.0560
 1.3925     15.9125   -0.2369   16.1495   60.1104  -43.9610 -157.9020  147.6123   26.4392
 1.3950     15.8783   -0.2787   16.1570   60.7446  -44.5876 -157.4015  147.7520   25.8066
 1.3975     15.8277   -0.3205   16.1482   61.3544  -45.2062 -156.8934  147.8822   25.1594
 1.4000     15.7625   -0.3622   16.1247   61.9416  -45.8169 -156.3769  148.0030   24.4986
 1.4025     15.6843   -0.4038   16.0881   62.5080  -46.4199 -155.8517  148.1148   23.8250
 1.4050     15.5944   -0.4453   16.0397   63.0550  -47.0152 -155.3173  148.2174   23.1396
 1.4075     15.4940   -0.4867   15.9807   63.5837  -47.6030 -154.7733  148.3110   22.4430
 1.4100     15.3841   -0.5279   15.9120   64.0952  -48.1832 -154.2195  148.3955   21.7360
 1.4125     15.2656   -0.5689   15.8345   64.5904  -48.7558 -153.6555  148.4710   21.0191
 1.4150     15.1393   -0.6097   15.7490   65.0698  -49.3208 -153.0813  148.5373   20.2929
 1.4175     15.0056   -0.6502   15.6559   65.5341  -49.8782 -152.4966  148.5944   19.5581
 1.4200     14.8653   -0.6906   15.5559   65.9838  -50.4279 -151.9014  148.6421   18.8151
 1.4225     14.7188   -0.7306   15.4494   66.4192  -50.9698 -151.2955  148.6804   18.0645
 1.4250     14.5665   -0.7703   15.3368   66.8406  -51.5038 -150.6790  148.7091   17.3067
 1.4275     14.4087   -0.8098   15.2185   67.2483  -52.0298 -150.0519  148.7281   16.5423
 1.4300     14.2458   -0.8489   15.0947   67.6423  -52.5477 -149.4142  148.7372   15.7717
 1.4325     14.0780   -0.8876   14.9656   68.0229  -53.0573 -148.7661  148.7362   14.9955
 1.4350     13.9055   -0.9260   14.8315   68.3902  -53.5586 -148.1075  148.7249   14.2141
 1.4375     13.7287   -0.9640   14.6927   68.7441  -54.0514 -147.4387  148.7033   13.4281
 1.4400     13.5476   -1.0016   14.5492   69.0847  -54.5355 -146.7599  148.6711   12.6379
 1.4425     13.3625   -1.0388   14.4012   69.4121  -55.0109 -146.0712  148.6282   11.8442
 1.4450     13.1735   -1.0755   14.2490   69.7263  -55.4774 -145.3728  148.5744   11.0474
 1.4475     12.9808   -1.1118   14.0926   70.0274  -55.9348 -144.6651  148.5095   10.2482
 1.4500     12.7846   -1.1476   13.9321   70.3152  -56.3831 -143.9483  148.4334    9.4470
 1.4525     12.5850   -1.1829   13.7679   70.5900  -56.8221 -143.2227  148.3460    8.6446
 1.4550     12.3822   -1.2177   13.5999   70.8516  -57.2517 -142.4886  148.2470    7.8416
 1.4575     12.1764   -1.2519   13.4284   71.1001  -57.6718 -141.7464  148.1363    7.0385
 1.4600     11.9678   -1.2857   13.2534   71.3357  -58.0823 -140.9964  148.0139    6.2360
 1.4625     11.7565   -1.3188   13.0753   71.5584  -58.4831 -140.2390  147.8795    5.4348
 1.4650     11.5427   -1.3514   12.8941   71.7682  -58.8741 -139.4746  147.7332    4.6355
 1.4675     11.3267   -1.3834   12.7101   71.9653  -59.2552 -138.7036  147.5748    3.8389
 1.4700     11.1086   -1.4148   12.5234   72.1498  -59.6264 -137.9264  147.4042    3.0456
 1.4725     10.8887   -1.4456   12.3343   72.3218  -59.9876 -137.1435  147.2214    2.2563
 1.4750     10.6671   -1.4757   12.1428   72.4816  -60.3387 -136.3553  147.0264    1.4718
 1.4775     10.4442   -1.5052   11.9494   72.6292  -60.6798 -135.5624  146.8190    0.6927
 1.4800     10.2201   -1.5340   11.7541   72.7650  -61.0108 -134.7651  146.5994   -0.0803
 1.4825      9.9950   -1.5622   11.5572   72.8890  -61.3317 -133.9639  146.3676   -0.8464
 1.4850      9.7693   -1.5897   11.3590   73.0016  -61.6425 -133.1595  146.1235   -1.6050
 1.4875      9.5432   -1.6165   11.1597   73.1029  -61.9432 -132.3521  145.8672   -2.3553
 1.4900      9.3169   -1.6427   10.9595   73.1934  -62.2338 -131.5424  145.5988   -3.0968
 1.4925      9.0906   -1.6681   10.7587   73.2731  -62.5144 -130.7309  145.3184   -3.8288
 1.4950      8.8648   -1.6928   10.5576   73.3426  -62.7850 -129.9180  145.0261   -4.5505
 1.4975      8.6395   -1.7169   10.3564   73.4019  -63.0456 -129.1043  144.7221   -5.2615
 1.5000      8.4151   -1.7402   10.1553   73.4516  -63.2963 -128.2902  144.4065   -5.9611


 DIST  Cl:   FLUX      FEKM      FIKM     JNKCC      JKCC      JCLB    GIKS+GJK
 1.3000    274.2227   10.2048  264.0179  264.0270  115.5614    1.9664  146.4901
 1.3025    276.6854    9.4544  267.2310  267.2403  118.1559    1.8600  147.2150
 1.3050    278.8542    8.6641  270.1901  270.1995  120.5201    1.7557  147.9143
 1.3075    280.7506    7.8362  272.9145  272.9240  122.6748    1.6527  148.5869
 1.3100    282.3957    6.9731  275.4225  275.4322  124.6390    1.5508  149.2327
 1.3125    283.8066    6.0776  277.7290  277.7387  126.4289    1.4502  149.8499
 1.3150    284.9980    5.1526  279.8454  279.8552  128.0584    1.3509  150.4362
 1.3175    285.9823    4.2014  281.7809  281.7908  129.5396    1.2530  150.9882
 1.3200    286.7707    3.2275  283.5433  283.5533  130.8838    1.1569  151.5026
 1.3225    287.3739    2.2344  285.1395  285.1497  132.1011    1.0628  151.9757
 1.3250    287.8022    1.2259  286.5764  286.5866  133.2013    0.9708  152.4042
 1.3275    288.0663    0.2055  287.8608  287.8711  134.1940    0.8814  152.7853
 1.3300    288.1769   -0.8231  289.0000  289.0105  135.0885    0.7947  153.1169
 1.3325    288.1452   -1.8569  290.0021  290.0126  135.8937    0.7109  153.3975
 1.3350    287.9823   -2.8929  290.8753  290.8859  136.6185    0.6301  153.6267
 1.3375    287.6995   -3.9287  291.6282  291.6389  137.2712    0.5525  153.8045
 1.3400    287.3076   -4.9620  292.2696  292.2804  137.8598    0.4780  153.9318
 1.3425    286.8169   -5.9913  292.8082  292.8190  138.3917    0.4067  154.0098
 1.3450    286.2371   -7.0150  293.2522  293.2631  138.8736    0.3383  154.0403
 1.3475    285.5771   -8.0323  293.6094  293.6204  139.3115    0.2729  154.0251
 1.3500    284.8449   -9.0423  293.8872  293.8983  139.7109    0.2101  153.9662
 1.3525    284.0477  -10.0444  294.0921  294.1032  140.0765    0.1498  153.8658
 1.3550    283.1916  -11.0383  294.2299  294.2411  140.4125    0.0918  153.7257
 1.3575    282.2822  -12.0238  294.3060  294.3172  140.7224    0.0358  153.5478
 1.3600    281.3242  -13.0008  294.3249  294.3362  141.0094   -0.0183  153.3339
 1.3625    280.3216  -13.9691  294.2907  294.3020  141.2759   -0.0709  153.0857
 1.3650    279.2779  -14.9289  294.2068  294.2182  141.5244   -0.1220  152.8045
 1.3675    278.1959  -15.8803  294.0762  294.0876  141.7566   -0.1720  152.4916
 1.3700    277.0783  -16.8231  293.9014  293.9129  141.9741   -0.2210  152.1484
 1.3725    275.9270  -17.7577  293.6847  293.6962  142.1783   -0.2693  151.7757
 1.3750    274.7439  -18.6841  293.4279  293.4394  142.3702   -0.3168  151.3746
 1.3775    273.5303  -19.6023  293.1326  293.1441  142.5508   -0.3640  150.9457
 1.3800    272.2875  -20.5125  292.8000  292.8115  142.7209   -0.4108  150.4899
 1.3825    271.0165  -21.4149  292.4313  292.4429  142.8810   -0.4574  150.0077
 1.3850    269.7181  -22.3094  292.0275  292.0391  143.0316   -0.5039  149.4998
 1.3875    268.3930  -23.1962  291.5892  291.6008  143.1732   -0.5505  148.9664
 1.3900    267.0419  -24.0753  291.1171  291.1287  143.3061   -0.5972  148.4082
 1.3925    265.6650  -24.9467  290.6118  290.6234  143.4305   -0.6441  147.8254
 1.3950    264.2629  -25.8107  290.0735  290.0851  143.5465   -0.6913  147.2183
 1.3975    262.8357  -26.6670  289.5027  289.5143  143.6543   -0.7389  146.5873
 1.4000    261.3838  -27.5159  288.8997  288.9113  143.7539   -0.7869  145.9326
 1.4025    259.9074  -28.3572  288.2646  288.2762  143.8455   -0.8354  145.2545
 1.4050    258.4065  -29.1910  287.5975  287.6091  143.9289   -0.8844  144.5531
 1.4075    256.8815  -30.0173  286.8988  286.9104  144.0041   -0.9341  143.8287
 1.4100    255.3323  -30.8361  286.1683  286.1799  144.0712   -0.9843  143.0815
 1.4125    253.7590  -31.6473  285.4063  285.4179  144.1299   -1.0352  142.3116
 1.4150    252.1620  -32.4509  284.6129  284.6244  144.1802   -1.0868  141.5194
 1.4175    250.5411  -33.2469  283.7880  283.7995  144.2220   -1.1390  140.7050
 1.4200    248.8967  -34.0352  282.9318  282.9433  144.2552   -1.1920  139.8687
 1.4225    247.2287  -34.8157  282.0445  282.0559  144.2796   -1.2458  139.0107
 1.4250    245.5375  -35.5885  281.1260  281.1375  144.2950   -1.3003  138.1313
 1.4275    243.8232  -36.3534  280.1766  280.1880  144.3014   -1.3555  137.2308
 1.4300    242.0860  -37.1104  279.1964  279.2078  144.2984   -1.4116  136.3096
 1.4325    240.3262  -37.8595  278.1857  278.1970  144.2861   -1.4684  135.3680
 1.4350    238.5441  -38.6005  277.1445  277.1558  144.2642   -1.5261  134.4064
 1.4375    236.7399  -39.3334  276.0733  276.0846  144.2326   -1.5845  133.4252
 1.4400    234.9142  -40.0581  274.9723  274.9835  144.1911   -1.6437  132.4249
 1.4425    233.0673  -40.7746  273.8419  273.8530  144.1395   -1.7037  131.4061
 1.4450    231.1996  -41.4828  272.6824  272.6935  144.0776   -1.7645  130.3693
 1.4475    229.3117  -42.1826  271.4943  271.5054  144.0054   -1.8261  129.3150
 1.4500    227.4040  -42.8740  270.2781  270.2891  143.9227   -1.8885  128.2438
 1.4525    225.4773  -43.5569  269.0343  269.0453  143.8293   -1.9516  127.1565
 1.4550    223.5322  -44.2313  267.7635  267.7744  143.7251   -2.0155  126.0538
 1.4575    221.5692  -44.8971  266.4663  266.4772  143.6101   -2.0801  124.9364
